733.747 474
733.787 491
733.826 493
733.866 513
733.905 489
733.945 518
733.984 509
734.024 493
734.063 510
734.103 503
734.142 490
734.182 480
734.221 485
734.261 476
734.3 481
734.34 475
734.379 499
734.419 479
734.458 480
734.498 488
734.537 508
734.577 477
734.616 497
734.656 503
734.695 471
734.735 470
734.774 471
734.814 485
734.853 499
734.893 521
734.932 484
734.972 494
735.011 483
735.05 491
735.09 487
735.129 519
735.169 509
735.208 508
735.248 505
735.287 504
735.327 493
735.366 505
735.406 505
735.445 486
735.485 493
735.524 511
735.563 505
735.603 506
735.642 479
735.682 498
735.721 496
735.761 481
735.8 517
735.84 508
735.879 475
735.919 495
735.958 500
735.997 534
736.037 487
736.076 500
736.116 494
736.155 513
736.195 496
736.234 519
736.274 497
736.313 510
736.353 510
736.392 512
736.431 532
736.471 498
736.51 519
736.55 490
736.589 508
736.629 517
736.668 488
736.707 480
736.747 499
736.786 520
736.826 517
736.865 490
736.905 516
736.944 505
736.983 512
737.023 505
737.062 531
737.102 510
737.141 496
737.181 508
737.22 536
737.259 513
737.299 521
737.338 549
737.378 524
737.417 518
737.457 533
737.496 516
737.535 511
737.575 522
737.614 525
737.654 506
737.693 513
737.732 500
737.772 507
737.811 513
737.851 517
737.89 492
737.93 513
737.969 493
738.008 507
738.048 542
738.087 536
738.127 503
738.166 534
738.205 491
738.245 486
738.284 500
738.324 518
738.363 515
738.402 480
738.442 514
738.481 500
738.521 505
738.56 506
738.599 499
738.639 536
738.678 526
738.718 513
738.757 495
738.796 524
738.836 531
738.875 495
738.914 519
738.954 479
738.993 516
739.033 519
739.072 489
739.111 481
739.151 499
739.19 506
739.23 492
739.269 521
739.308 500
739.348 510
739.387 513
739.426 486
739.466 496
739.505 510
739.545 513
739.584 518
739.623 512
739.663 502
739.702 503
739.741 512
739.781 528
739.82 518
739.859 527
739.899 519
739.938 493
739.978 514
740.017 512
740.056 507
740.096 525
740.135 509
740.174 522
740.214 529
740.253 499
740.292 512
740.332 541
740.371 496
740.411 519
740.45 497
740.489 502
740.529 522
740.568 527
740.607 489
740.647 532
740.686 512
740.725 525
740.765 520
740.804 512
740.843 530
740.883 510
740.922 523
740.961 511
741.001 503
741.04 505
741.079 523
741.119 522
741.158 523
741.197 528
741.237 558
741.276 523
741.315 521
741.355 539
741.394 520
741.433 505
741.473 526
741.512 538
741.551 521
741.591 533
741.63 544
741.669 542
741.709 521
741.748 536
741.787 538
741.827 536
741.866 540
741.905 526
741.945 526
741.984 537
742.023 529
742.063 501
742.102 529
742.141 548
742.181 530
742.22 565
742.259 541
742.299 532
742.338 553
742.377 556
742.416 573
742.456 561
742.495 575
742.534 571
742.574 563
742.613 549
742.652 558
742.692 548
742.731 503
742.77 574
742.81 545
742.849 547
742.888 530
742.927 533
742.967 536
743.006 542
743.045 556
743.085 522
743.124 542
743.163 548
743.203 574
743.242 550
743.281 553
743.32 517
743.36 561
743.399 508
743.438 511
743.478 554
743.517 560
743.556 567
743.595 553
743.635 521
743.674 547
743.713 525
743.753 544
743.792 543
743.831 543
743.87 536
743.91 569
743.949 556
743.988 566
744.027 567
744.067 533
744.106 562
744.145 548
744.185 577
744.224 553
744.263 539
744.302 507
744.342 576
744.381 564
744.42 558
744.459 564
744.499 572
744.538 575
744.577 551
744.617 559
744.656 553
744.695 1948
744.734 4695
744.774 558
744.813 550
744.852 563
744.891 550
744.931 562
744.97 542
745.009 574
745.048 522
745.088 583
745.127 569
745.166 544
745.205 564
745.245 552
745.284 585
745.323 575
745.362 562
745.402 565
745.441 532
745.48 563
745.519 566
745.559 585
745.598 572
745.637 585
745.676 570
745.716 592
745.755 570
745.794 553
745.833 597
745.872 563
745.912 569
745.951 574
745.99 573
746.029 592
746.069 593
746.108 573
746.147 574
746.186 594
746.226 591
746.265 582
746.304 597
746.343 575
746.382 580
746.422 579
746.461 585
746.5 593
746.539 584
746.579 605
746.618 598
746.657 574
746.696 607
746.735 604
746.775 587
746.814 608
746.853 602
746.892 603
746.932 615
746.971 596
747.01 603
747.049 613
747.088 628
747.128 602
747.167 597
747.206 607
747.245 617
747.284 614
747.324 583
747.363 636
747.402 628
747.441 646
747.48 608
747.52 645
747.559 642
747.598 654
747.637 655
747.676 625
747.716 646
747.755 647
747.794 668
747.833 633
747.872 672
747.912 659
747.951 656
747.99 677
748.029 652
748.068 679
748.107 678
748.147 726
748.186 713
748.225 727
748.264 744
748.303 758
748.343 757
748.382 745
748.421 784
748.46 795
748.499 774
748.538 820
748.578 820
748.617 808
748.656 865
748.695 892
748.734 889
748.774 901
748.813 977
748.852 999
748.891 1039
748.93 1050
748.969 1100
749.009 1186
749.048 1201
749.087 1322
749.126 1361
749.165 1420
749.204 1524
749.244 1569
749.283 1621
749.322 1596
749.361 1670
749.4 1623
749.439 1590
749.478 1546
749.518 1487
749.557 1398
749.596 1419
749.635 1374
749.674 1338
749.713 1365
749.753 1298
749.792 1258
749.831 1211
749.87 1167
749.909 1210
749.948 1180
749.987 1138
750.027 1156
750.066 1156
750.105 1124
750.144 1089
750.183 1095
750.222 1061
750.261 1035
750.301 1016
750.34 1018
750.379 1018
750.418 995
750.457 980
750.496 980
750.535 955
750.575 961
750.614 972
750.653 986
750.692 972
750.731 969
750.77 943
750.809 933
750.848 894
750.888 897
750.927 891
750.966 863
751.005 892
751.044 831
751.083 831
751.122 853
751.161 868
751.201 841
751.24 843
751.279 858
751.318 801
751.357 848
751.396 827
751.435 826
751.474 785
751.513 858
751.553 792
751.592 861
751.631 826
751.67 864
751.709 801
751.748 809
751.787 813
751.826 792
751.865 849
751.905 783
751.944 823
751.983 780
752.022 796
752.061 788
752.1 768
752.139 810
752.178 793
752.217 753
752.256 769
752.296 793
752.335 761
752.374 747
752.413 793
752.452 770
752.491 772
752.53 730
752.569 763
752.608 746
752.647 736
752.686 765
752.726 772
752.765 764
752.804 796
752.843 767
752.882 776
752.921 776
752.96 749
752.999 745
753.038 753
753.077 726
753.116 761
753.155 745
753.194 787
753.234 746
753.273 745
753.312 782
753.351 765
753.39 733
753.429 747
753.468 723
753.507 785
753.546 781
753.585 770
753.624 756
753.663 788
753.702 794
753.741 765
753.78 806
753.82 784
753.859 768
753.898 770
753.937 822
753.976 801
754.015 777
754.054 815
754.093 784
754.132 796
754.171 804
754.21 808
754.249 783
754.288 809
754.327 817
754.366 786
754.405 812
754.444 821
754.483 825
754.523 817
754.562 833
754.601 860
754.64 827
754.679 826
754.718 856
754.757 863
754.796 879
754.835 885
754.874 901
754.913 899
754.952 906
754.991 924
755.03 880
755.069 886
755.108 912
755.147 940
755.186 936
755.225 947
755.264 946
755.303 3274
755.342 1836
755.381 2126
755.42 1549
755.459 1659
755.498 1098
755.537 1020
755.576 1080
755.615 1100
755.654 1025
755.694 1125
755.733 1095
755.772 1110
755.811 1167
755.85 1151
755.889 1165
755.928 1195
755.967 1180
756.006 1210
756.045 1254
756.084 1263
756.123 1301
756.162 1289
756.201 1355
756.24 1355
756.279 1365
756.318 1412
756.357 1437
756.396 1488
756.435 1529
756.474 1528
756.513 1600
756.552 1614
756.591 1665
756.63 1660
756.669 1733
756.708 1768
756.747 1857
756.786 1968
756.825 1840
756.864 1924
756.903 2032
756.942 2163
756.981 2210
757.02 2242
757.059 2328
757.098 2425
757.137 2551
757.176 2559
757.215 2704
757.254 2853
757.293 2935
757.332 2992
757.371 3090
757.41 3352
757.449 3398
757.488 3476
757.527 3795
757.565 3870
757.604 4119
757.643 4304
757.682 4510
757.721 4704
757.76 4992
757.799 5306
757.838 5614
757.877 5885
757.916 6232
757.955 6601
757.994 7017
758.033 7372
758.072 7945
758.111 8429
758.15 8869
758.189 9763
758.228 10336
758.267 11109
758.306 12063
758.345 12952
758.384 13864
758.423 14844
758.462 15993
758.501 17270
758.54 18327
758.579 19904
758.618 21469
758.657 22695
758.696 24140
758.734 25497
758.773 26720
758.812 28168
758.851 29245
758.89 29965
758.929 30834
758.968 31554
759.007 31725
759.046 31862
759.085 32063
759.124 31872
759.163 31657
759.202 31516
759.241 30827
759.28 30444
759.319 30124
759.358 29449
759.397 29079
759.435 28458
759.474 27771
759.513 27270
759.552 26697
759.591 26129
759.63 25764
759.669 24908
759.708 24290
759.747 23782
759.786 23220
759.825 22175
759.864 21320
759.903 20529
759.942 19907
759.981 18809
760.019 17754
760.058 16889
760.097 16109
760.136 15001
760.175 14295
760.214 13523
760.253 12643
760.292 11903
760.331 11082
760.37 10397
760.409 9905
760.448 9381
760.487 8725
760.525 8194
760.564 7745
760.603 7246
760.642 6929
760.681 6561
760.72 6314
760.759 5838
760.798 5584
760.837 5231
760.876 5091
760.915 4799
760.953 4507
760.992 4357
761.031 4231
761.07 3962
761.109 3808
761.148 3642
761.187 3471
761.226 3361
761.265 3231
761.304 3107
761.342 2924
761.381 2876
761.42 2792
761.459 2659
761.498 2555
761.537 2472
761.576 2416
761.615 2393
761.654 2245
761.692 2216
761.731 2123
761.77 2099
761.809 2047
761.848 1945
761.887 1922
761.926 1878
761.965 1869
762.004 1787
762.042 1722
762.081 1689
762.12 1665
762.159 1670
762.198 1606
762.237 1598
762.276 1502
762.315 1528
762.353 1516
762.392 1468
762.431 1407
762.47 1370
762.509 1387
762.548 1355
762.587 1317
762.626 1323
762.664 1297
762.703 1322
762.742 1240
762.781 1232
762.82 1233
762.859 1199
762.898 1212
762.936 1206
762.975 1145
763.014 1154
763.053 1137
763.092 1105
763.131 1164
763.17 1079
763.208 1117
763.247 1101
763.286 1068
763.325 1075
763.364 1042
763.403 1049
763.442 1014
763.48 1030
763.519 1082
763.558 1067
763.597 1134
763.636 1160
763.675 1166
763.713 1165
763.752 1115
763.791 1132
763.83 1076
763.869 1044
763.908 958
763.947 933
763.985 980
764.024 966
764.063 942
764.102 938
764.141 931
764.18 926
764.218 910
764.257 948
764.296 911
764.335 894
764.374 914
764.413 919
764.451 891
764.49 885
764.529 865
764.568 867
764.607 885
764.645 846
764.684 876
764.723 849
764.762 852
764.801 880
764.84 854
764.878 820
764.917 788
764.956 819
764.995 824
765.034 826
765.072 794
765.111 817
765.15 813
765.189 802
765.228 843
765.267 787
765.305 793
765.344 784
765.383 760
765.422 787
765.461 762
765.499 784
765.538 774
765.577 769
765.616 779
765.655 762
765.693 793
765.732 771
765.771 782
765.81 781
765.849 763
765.887 760
765.926 747
765.965 770
766.004 736
766.043 758
766.081 719
766.12 773
766.159 736
766.198 733
766.237 765
766.275 739
766.314 707
766.353 702
766.392 731
766.43 707
766.469 736
766.508 730
766.547 728
766.586 694
766.624 693
766.663 715
766.702 706
766.741 740
766.779 684
766.818 683
766.857 685
766.896 687
766.935 658
766.973 692
767.012 686
767.051 693
767.09 671
767.128 654
767.167 695
767.206 654
767.245 677
767.283 668
767.322 672
767.361 686
767.4 681
767.439 672
767.477 702
767.516 676
767.555 658
767.594 664
767.632 647
767.671 629
767.71 691
767.749 653
767.787 654
767.826 643
767.865 689
767.904 641
767.942 655
767.981 641
768.02 653
768.059 656
768.097 628
768.136 626
768.175 632
768.214 621
768.252 671
768.291 649
768.33 640
768.369 620
768.407 615
768.446 630
768.485 620
768.524 638
768.562 625
768.601 1555
768.64 2948
768.678 1721
768.717 706
768.756 649
768.795 608
768.833 623
768.872 616
768.911 643
768.95 624
768.988 625
769.027 630
769.066 607
769.104 603
769.143 594
769.182 598
769.221 600
769.259 617
769.298 595
769.337 614
769.376 618
769.414 602
769.453 585
769.492 587
769.53 579
769.569 605
769.608 612
769.647 601
769.685 597
769.724 595
769.763 595
769.801 593
769.84 582
769.879 609
769.917 583
769.956 600
769.995 602
770.034 595
770.072 593
770.111 596
770.15 562
770.188 586
770.227 583
770.266 546
770.305 571
770.343 562
770.382 579
770.421 567
770.459 577
770.498 566
770.537 572
770.575 574
770.614 584
770.653 595
770.691 548
770.73 579
770.769 594
770.808 562
770.846 555
770.885 584
770.924 564
770.962 550
771.001 545
771.04 584
771.078 578
771.117 572
771.156 548
771.194 551
771.233 579
771.272 545
771.31 581
771.349 575
771.388 567
771.426 552
771.465 551
771.504 600
771.542 539
771.581 574
771.62 570
771.658 567
771.697 559
771.736 550
771.774 559
771.813 566
771.852 563
771.89 586
771.929 579
771.968 557
772.006 556
772.045 573
772.084 574
772.122 538
772.161 534
772.2 531
772.238 589
772.277 564
772.316 522
772.354 562
772.393 595
772.432 631
772.47 650
772.509 651
772.548 627
772.586 608
772.625 616
772.664 582
772.702 592
772.741 538
772.779 554
772.818 568
772.857 557
772.895 560
772.934 571
772.973 590
773.011 582
773.05 598
773.089 582
773.127 580
773.166 574
773.204 568
773.243 555
773.282 583
773.32 546
773.359 542
773.398 573
773.436 552
773.475 557
773.514 602
773.552 568
773.591 553
773.629 521
773.668 560
773.707 564
773.745 533
773.784 548
773.822 528
773.861 561
773.9 534
773.938 543
773.977 559
774.016 556
774.054 555
774.093 530
774.131 556
774.17 562
774.209 547
774.247 529
774.286 527
774.324 543
774.363 531
774.402 521
774.44 553
774.479 539
774.518 540
774.556 554
774.595 548
774.633 498
774.672 515
774.711 537
774.749 558
774.788 548
774.826 533
774.865 536
774.904 560
774.942 537
774.981 533
775.019 542
775.058 548
775.096 540
775.135 569
775.174 553
775.212 558
775.251 547
775.289 524
775.328 555
775.367 536
775.405 530
775.444 511
775.482 517
775.521 525
775.56 534
775.598 535
775.637 548
775.675 554
775.714 545
775.752 548
775.791 524
775.83 547
775.868 542
775.907 529
775.945 532
775.984 523
776.022 560
776.061 527
776.1 516
776.138 532
776.177 537
776.215 507
776.254 514
776.292 540
776.331 541
776.37 532
776.408 523
776.447 531
776.485 510
776.524 532
776.562 549
776.601 551
776.639 525
776.678 527
776.717 519
776.755 537
776.794 501
776.832 513
776.871 486
776.909 494
776.948 521
776.986 517
777.025 539
777.064 536
777.102 540
777.141 510
777.179 477
777.218 522
777.256 518
777.295 547
777.333 485
777.372 530
777.41 511
777.449 506
777.488 545
777.526 508
777.565 555
777.603 629
777.642 866
777.68 1798
777.719 2521
777.757 1439
777.796 782
777.834 556
777.873 517
777.911 529
777.95 530
777.988 502
778.027 511
778.066 510
778.104 509
778.143 496
778.181 514
778.22 531
778.258 505
778.297 518
778.335 507
778.374 497
778.412 496
778.451 506
778.489 483
778.528 507
778.566 525
778.605 502
778.643 482
778.682 514
778.72 509
778.759 512
778.797 487
778.836 511
778.874 511
778.913 523
778.951 510
778.99 485
779.028 474
779.067 502
779.105 475
779.144 497
779.182 525
779.221 514
779.259 492
779.298 499
779.336 509
779.375 518
779.413 481
779.452 517
779.49 511
779.529 506
779.567 495
779.606 486
779.644 494
779.683 525
779.721 508
779.76 499
779.798 491
779.837 482
779.875 489
779.914 527
779.952 499
779.991 480
780.029 478
780.068 475
780.106 484
780.145 510
780.183 524
780.222 503
780.26 481
780.299 502
780.337 503
780.376 462
780.414 495
780.452 497
780.491 477
780.529 491
780.568 497
780.606 509
780.645 494
780.683 510
780.722 501
780.76 510
780.799 512
780.837 494
780.876 486
780.914 511
780.953 498
780.991 502
781.029 484
781.068 495
781.106 495
781.145 475
781.183 488
781.222 491
781.26 523
781.299 480
781.337 494
781.376 501
781.414 499
781.452 503
781.491 477
781.529 482
781.568 481
781.606 499
781.645 507
781.683 504
781.722 509
781.76 492
781.798 490
781.837 505
781.875 485
781.914 490
781.952 496
781.991 494
782.029 504
782.068 469
782.106 474
782.144 490
782.183 497
782.221 501
782.26 486
782.298 491
782.337 480
782.375 476
782.413 490
782.452 492
782.49 494
782.529 483
782.567 476
782.606 492
782.644 487
782.682 509
782.721 462
782.759 477
782.798 460
782.836 503
782.875 492
782.913 473
782.951 495
782.99 476
783.028 513
783.067 476
783.105 496
783.143 480
783.182 490
783.22 476
783.259 480
783.297 491
783.336 497
783.374 463
783.412 481
783.451 492
783.489 488
783.528 466
783.566 483
783.604 456
783.643 460
783.681 487
783.72 464
783.758 486
783.796 480
783.835 510
783.873 497
783.912 459
783.95 486
783.988 483
784.027 473
784.065 480
784.104 488
784.142 476
784.18 484
784.219 466
784.257 513
784.295 467
784.334 467
784.372 476
784.411 492
784.449 484
784.487 464
784.526 476
784.564 485
784.603 489
784.641 454
784.679 480
784.718 511
784.756 468
784.794 478
784.833 472
784.871 470
784.91 476
784.948 487
784.986 483
785.025 488
785.063 480
785.101 483
785.14 500
785.178 469
785.217 478
785.255 471
785.293 474
785.332 479
785.37 486
785.408 483
785.447 469
785.485 471
785.523 469
785.562 471
785.6 450
785.638 468
785.677 461
785.715 482
785.754 477
785.792 462
785.83 480
785.869 474
