733.747 480
733.787 494
733.826 488
733.866 488
733.905 498
733.945 484
733.984 512
734.024 479
734.063 502
734.103 502
734.142 480
734.182 486
734.221 482
734.261 474
734.3 477
734.34 491
734.379 495
734.419 508
734.458 484
734.498 464
734.537 498
734.577 489
734.616 490
734.656 458
734.695 474
734.735 487
734.774 462
734.814 488
734.853 508
734.893 495
734.932 497
734.972 487
735.011 490
735.05 499
735.09 475
735.129 501
735.169 484
735.208 477
735.248 498
735.287 474
735.327 471
735.366 488
735.406 495
735.445 511
735.485 486
735.524 481
735.563 490
735.603 467
735.642 473
735.682 504
735.721 516
735.761 486
735.8 493
735.84 492
735.879 469
735.919 491
735.958 495
735.997 489
736.037 498
736.076 518
736.116 524
736.155 502
736.195 493
736.234 482
736.274 479
736.313 498
736.353 492
736.392 494
736.431 491
736.471 487
736.51 482
736.55 504
736.589 476
736.629 506
736.668 504
736.707 478
736.747 486
736.786 484
736.826 467
736.865 521
736.905 493
736.944 488
736.983 488
737.023 474
737.062 492
737.102 493
737.141 507
737.181 486
737.22 507
737.259 533
737.299 538
737.338 505
737.378 492
737.417 508
737.457 488
737.496 500
737.535 522
737.575 517
737.614 528
737.654 540
737.693 514
737.732 515
737.772 488
737.811 513
737.851 504
737.89 505
737.93 513
737.969 503
738.008 495
738.048 484
738.087 476
738.127 493
738.166 489
738.205 528
738.245 479
738.284 505
738.324 476
738.363 505
738.402 486
738.442 487
738.481 479
738.521 525
738.56 519
738.599 509
738.639 492
738.678 497
738.718 499
738.757 487
738.796 499
738.836 506
738.875 503
738.914 491
738.954 485
738.993 472
739.033 497
739.072 493
739.111 471
739.151 486
739.19 487
739.23 490
739.269 526
739.308 504
739.348 492
739.387 510
739.426 503
739.466 497
739.505 504
739.545 486
739.584 496
739.623 494
739.663 493
739.702 503
739.741 496
739.781 496
739.82 502
739.859 499
739.899 487
739.938 492
739.978 468
740.017 504
740.056 481
740.096 482
740.135 496
740.174 493
740.214 503
740.253 514
740.292 519
740.332 519
740.371 508
740.411 488
740.45 472
740.489 528
740.529 477
740.568 478
740.607 494
740.647 499
740.686 500
740.725 514
740.765 503
740.804 534
740.843 502
740.883 481
740.922 489
740.961 521
741.001 503
741.04 502
741.079 482
741.119 493
741.158 488
741.197 496
741.237 479
741.276 513
741.315 526
741.355 533
741.394 502
741.433 523
741.473 521
741.512 501
741.551 530
741.591 498
741.63 512
741.669 509
741.709 515
741.748 492
741.787 512
741.827 480
741.866 526
741.905 515
741.945 520
741.984 523
742.023 520
742.063 505
742.102 489
742.141 512
742.181 517
742.22 515
742.259 514
742.299 526
742.338 543
742.377 522
742.416 531
742.456 553
742.495 554
742.534 530
742.574 492
742.613 536
742.652 508
742.692 545
742.731 528
742.77 504
742.81 489
742.849 530
742.888 528
742.927 505
742.967 511
743.006 542
743.045 546
743.085 520
743.124 526
743.163 509
743.203 509
743.242 520
743.281 517
743.32 507
743.36 528
743.399 517
743.438 526
743.478 517
743.517 534
743.556 511
743.595 522
743.635 518
743.674 494
743.713 542
743.753 505
743.792 551
743.831 516
743.87 528
743.91 545
743.949 491
743.988 516
744.027 524
744.067 535
744.106 525
744.145 527
744.185 524
744.224 529
744.263 498
744.302 539
744.342 529
744.381 507
744.42 518
744.459 520
744.499 540
744.538 516
744.577 520
744.617 518
744.656 541
744.695 522
744.734 541
744.774 502
744.813 568
744.852 528
744.891 534
744.931 522
744.97 516
745.009 542
745.048 550
745.088 547
745.127 526
745.166 525
745.205 533
745.245 514
745.284 548
745.323 515
745.362 513
745.402 539
745.441 482
745.48 550
745.519 537
745.559 517
745.598 522
745.637 539
745.676 542
745.716 536
745.755 534
745.794 546
745.833 528
745.872 544
745.912 534
745.951 522
745.99 553
746.029 494
746.069 529
746.108 515
746.147 560
746.186 537
746.226 554
746.265 544
746.304 524
746.343 523
746.382 527
746.422 540
746.461 531
746.5 543
746.539 539
746.579 563
746.618 551
746.657 558
746.696 547
746.735 541
746.775 542
746.814 555
746.853 541
746.892 552
746.932 553
746.971 564
747.01 565
747.049 584
747.088 564
747.128 577
747.167 523
747.206 569
747.245 563
747.284 554
747.324 545
747.363 548
747.402 556
747.441 586
747.48 553
747.52 567
747.559 564
747.598 570
747.637 594
747.676 575
747.716 580
747.755 599
747.794 555
747.833 582
747.872 576
747.912 599
747.951 583
747.99 594
748.029 589
748.068 595
748.107 612
748.147 590
748.186 617
748.225 591
748.264 607
748.303 634
748.343 644
748.382 658
748.421 647
748.46 658
748.499 632
748.538 643
748.578 685
748.617 673
748.656 699
748.695 681
748.734 732
748.774 731
748.813 721
748.852 743
748.891 752
748.93 803
748.969 804
749.009 793
749.048 870
749.087 879
749.126 889
749.165 929
749.204 938
749.244 1003
749.283 1038
749.322 1079
749.361 1159
749.4 1201
749.439 1285
749.478 1372
749.518 1381
749.557 1455
749.596 1487
749.635 1470
749.674 1395
749.713 1413
749.753 1356
749.792 1345
749.831 1275
749.87 1235
749.909 1199
749.948 1199
749.987 1177
750.027 1125
750.066 1108
750.105 1127
750.144 1081
750.183 1099
750.222 1030
750.261 1004
750.301 1036
750.34 978
750.379 991
750.418 1008
750.457 985
750.496 941
750.535 917
750.575 920
750.614 925
750.653 915
750.692 869
750.731 892
750.77 883
750.809 861
750.848 877
750.888 857
750.927 850
750.966 842
751.005 832
751.044 824
751.083 805
751.122 804
751.161 817
751.201 795
751.24 792
751.279 761
751.318 748
751.357 758
751.396 760
751.435 724
751.474 784
751.513 753
751.553 760
751.592 1893
751.631 791
751.67 760
751.709 769
751.748 750
751.787 754
751.826 708
751.865 746
751.905 751
751.944 689
751.983 684
752.022 699
752.061 714
752.1 690
752.139 693
752.178 656
752.217 694
752.256 708
752.296 684
752.335 662
752.374 690
752.413 703
752.452 669
752.491 701
752.53 697
752.569 682
752.608 661
752.647 662
752.686 688
752.726 682
752.765 690
752.804 669
752.843 678
752.882 675
752.921 617
752.96 641
752.999 672
753.038 657
753.077 668
753.116 684
753.155 662
753.194 660
753.234 692
753.273 667
753.312 670
753.351 697
753.39 644
753.429 650
753.468 694
753.507 659
753.546 701
753.585 649
753.624 695
753.663 652
753.702 695
753.741 709
753.78 706
753.82 678
753.859 668
753.898 694
753.937 641
753.976 665
754.015 684
754.054 712
754.093 699
754.132 691
754.171 671
754.21 675
754.249 708
754.288 672
754.327 701
754.366 721
754.405 717
754.444 689
754.483 705
754.523 710
754.562 728
754.601 687
754.64 714
754.679 737
754.718 734
754.757 709
754.796 726
754.835 712
754.874 760
754.913 733
754.952 737
754.991 758
755.03 756
755.069 752
755.108 753
755.147 734
755.186 757
755.225 741
755.264 773
755.303 782
755.342 796
755.381 825
755.42 783
755.459 806
755.498 773
755.537 840
755.576 838
755.615 856
755.654 879
755.694 838
755.733 856
755.772 869
755.811 849
755.85 869
755.889 899
755.928 894
755.967 902
756.006 899
756.045 982
756.084 979
756.123 963
756.162 964
756.201 989
756.24 984
756.279 1007
756.318 1007
756.357 1053
756.396 1093
756.435 1083
756.474 1062
756.513 1142
756.552 1136
756.591 1129
756.63 1189
756.669 1203
756.708 1192
756.747 1283
756.786 1259
756.825 1282
756.864 1327
756.903 1369
756.942 1417
756.981 1460
757.02 1430
757.059 1454
757.098 1507
757.137 1564
757.176 1626
757.215 1655
757.254 1713
757.293 1760
757.332 1849
757.371 1889
757.41 1960
757.449 1944
757.488 2059
757.527 2075
757.565 2243
757.604 2373
757.643 2405
757.682 2445
757.721 2618
757.76 2674
757.799 2860
757.838 2959
757.877 2958
757.916 3198
757.955 3300
757.994 3489
758.033 3641
758.072 3804
758.111 4015
758.15 4242
758.189 4490
758.228 4879
758.267 5032
758.306 5400
758.345 5839
758.384 6040
758.423 6627
758.462 6969
758.501 7475
758.54 7812
758.579 8501
758.618 9124
758.657 9864
758.696 10718
758.734 11382
758.773 12184
758.812 13252
758.851 14152
758.89 15397
758.929 16473
758.968 17641
759.007 18856
759.046 19708
759.085 20986
759.124 22216
759.163 23157
759.202 24127
759.241 24741
759.28 25647
759.319 26234
759.358 26534
759.397 26719
759.435 26951
759.474 26549
759.513 26482
759.552 26349
759.591 25960
759.63 25423
759.669 24786
759.708 24316
759.747 23825
759.786 23407
759.825 22604
759.864 21863
759.903 21438
759.942 20983
759.981 20163
760.019 19962
760.058 19165
760.097 18441
760.136 17660
760.175 17313
760.214 16413
760.253 15793
760.292 14985
760.331 13943
760.37 13327
760.409 12661
760.448 11966
760.487 11139
760.525 10444
760.564 9806
760.603 9266
760.642 8745
760.681 8244
760.72 7639
760.759 7172
760.798 6798
760.837 6375
760.876 6014
760.915 5635
760.953 5242
760.992 5019
761.031 4773
761.07 4503
761.109 4294
761.148 3994
761.187 3841
761.226 3677
761.265 3490
761.304 3413
761.342 3263
761.381 2983
761.42 2918
761.459 2805
761.498 2657
761.537 2640
761.576 2521
761.615 2366
761.654 2307
761.692 2260
761.731 2114
761.77 2050
761.809 1964
761.848 1972
761.887 1870
761.926 1881
761.965 1809
762.004 1744
762.042 1660
762.081 1586
762.12 1621
762.159 1552
762.198 1517
762.237 1468
762.276 1370
762.315 1421
762.353 1406
762.392 1375
762.431 1340
762.47 1286
762.509 1276
762.548 1244
762.587 1194
762.626 1190
762.664 1183
762.703 1132
762.742 1142
762.781 1116
762.82 1134
762.859 1063
762.898 1064
762.936 1057
762.975 993
763.014 1048
763.053 1004
763.092 978
763.131 998
763.17 946
763.208 966
763.247 935
763.286 919
763.325 909
763.364 905
763.403 913
763.442 955
763.48 902
763.519 917
763.558 899
763.597 1023
763.636 1017
763.675 1023
763.713 1052
763.752 1032
763.791 943
763.83 937
763.869 891
763.908 817
763.947 812
763.985 779
764.024 824
764.063 784
764.102 796
764.141 786
764.18 747
764.218 784
764.257 762
764.296 779
764.335 745
764.374 739
764.413 735
764.451 767
764.49 742
764.529 730
764.568 746
764.607 732
764.645 741
764.684 695
764.723 715
764.762 706
764.801 711
764.84 714
764.878 730
764.917 678
764.956 676
764.995 659
765.034 687
765.072 703
765.111 676
765.15 654
765.189 668
765.228 688
765.267 648
765.305 677
765.344 690
765.383 682
765.422 648
765.461 674
765.499 643
765.538 629
765.577 664
765.616 669
765.655 644
765.693 622
765.732 632
765.771 624
765.81 617
765.849 609
765.887 635
765.926 643
765.965 636
766.004 625
766.043 596
766.081 592
766.12 616
766.159 618
766.198 569
766.237 604
766.275 610
766.314 639
766.353 617
766.392 571
766.43 564
766.469 575
766.508 579
766.547 595
766.586 609
766.624 572
766.663 582
766.702 591
766.741 570
766.779 566
766.818 579
766.857 556
766.896 581
766.935 585
766.973 557
767.012 563
767.051 536
767.09 542
767.128 580
767.167 561
767.206 562
767.245 575
767.283 561
767.322 542
767.361 561
767.4 541
767.439 571
767.477 568
767.516 584
767.555 538
767.594 551
767.632 549
767.671 555
767.71 544
767.749 540
767.787 538
767.826 528
767.865 534
767.904 536
767.942 556
767.981 539
768.02 532
768.059 533
768.097 516
768.136 534
768.175 533
768.214 528
768.252 505
768.291 533
768.33 525
768.369 486
768.407 505
768.446 524
768.485 532
768.524 497
768.562 520
768.601 530
768.64 523
768.678 498
768.717 506
768.756 500
768.795 507
768.833 505
768.872 513
768.911 518
768.95 500
768.988 509
769.027 505
769.066 486
769.104 503
769.143 503
769.182 490
769.221 493
769.259 507
769.298 512
769.337 500
769.376 504
769.414 485
769.453 515
769.492 496
769.53 482
769.569 1944
769.608 505
769.647 472
769.685 471
769.724 477
769.763 499
769.801 473
769.84 472
769.879 460
769.917 472
769.956 486
769.995 490
770.034 472
770.072 460
770.111 490
770.15 489
770.188 468
770.227 472
770.266 466
770.305 466
770.343 461
770.382 493
770.421 461
770.459 466
770.498 454
770.537 452
770.575 465
770.614 483
770.653 467
770.691 485
770.73 439
770.769 475
770.808 445
770.846 482
770.885 462
770.924 449
770.962 452
771.001 481
771.04 450
771.078 439
771.117 446
771.156 449
771.194 435
771.233 435
771.272 473
771.31 466
771.349 444
771.388 466
771.426 459
771.465 477
771.504 438
771.542 472
771.581 457
771.62 466
771.658 460
771.697 451
771.736 449
771.774 471
771.813 458
771.852 468
771.89 446
771.929 473
771.968 427
772.006 444
772.045 467
772.084 453
772.122 456
772.161 439
772.2 444
772.238 450
772.277 432
772.316 462
772.354 480
772.393 476
772.432 505
772.47 552
772.509 543
772.548 559
772.586 524
772.625 524
772.664 485
772.702 499
772.741 450
772.779 438
772.818 469
772.857 437
772.895 466
772.934 457
772.973 438
773.011 484
773.05 460
773.089 447
773.127 469
773.166 440
773.204 420
773.243 468
773.282 444
773.32 431
773.359 430
773.398 442
773.436 441
773.475 434
773.514 472
773.552 429
773.591 454
773.629 425
773.668 429
773.707 439
773.745 440
773.784 419
773.822 448
773.861 435
773.9 444
773.938 444
773.977 443
774.016 435
774.054 432
774.093 428
774.131 441
774.17 430
774.209 458
774.247 422
774.286 436
774.324 436
774.363 413
774.402 433
774.44 428
774.479 450
774.518 423
774.556 443
774.595 402
774.633 440
774.672 428
774.711 423
774.749 405
774.788 408
774.826 437
774.865 429
774.904 413
774.942 434
774.981 416
775.019 433
775.058 419
775.096 439
775.135 426
775.174 417
775.212 424
775.251 435
775.289 419
775.328 435
775.367 438
775.405 418
775.444 421
775.482 408
775.521 430
775.56 400
775.598 430
775.637 428
775.675 433
775.714 419
775.752 402
775.791 432
775.83 408
775.868 403
775.907 429
775.945 403
775.984 418
776.022 424
776.061 419
776.1 415
776.138 402
776.177 398
776.215 415
776.254 396
776.292 408
776.331 418
776.37 394
776.408 428
776.447 419
776.485 422
776.524 412
776.562 436
776.601 405
776.639 404
776.678 422
776.717 409
776.755 408
776.794 416
776.832 412
776.871 401
776.909 412
776.948 402
776.986 404
777.025 395
777.064 424
777.102 407
777.141 402
777.179 412
777.218 400
777.256 392
777.295 399
777.333 373
777.372 409
777.41 405
777.449 407
777.488 417
777.526 436
777.565 452
777.603 582
777.642 930
777.68 2193
777.719 3255
777.757 1714
777.796 822
777.834 498
777.873 428
777.911 422
777.95 415
777.988 400
778.027 403
778.066 394
778.104 397
778.143 410
778.181 404
778.22 391
778.258 403
778.297 426
778.335 376
778.374 396
778.412 395
778.451 397
778.489 376
778.528 395
778.566 403
778.605 385
778.643 407
778.682 376
778.72 408
778.759 405
778.797 361
778.836 431
778.874 358
778.913 397
778.951 403
778.99 388
779.028 363
779.067 369
779.105 399
779.144 378
779.182 381
779.221 400
779.259 417
779.298 399
779.336 378
779.375 371
779.413 404
779.452 393
779.49 376
779.529 388
779.567 380
779.606 385
779.644 374
779.683 388
779.721 392
779.76 393
779.798 374
779.837 410
779.875 388
779.914 386
779.952 381
779.991 387
780.029 375
780.068 357
780.106 381
780.145 377
780.183 385
780.222 373
780.26 365
780.299 383
780.337 393
780.376 375
780.414 379
780.452 393
780.491 387
780.529 361
780.568 379
780.606 383
780.645 385
780.683 380
780.722 390
780.76 361
780.799 372
780.837 380
780.876 383
780.914 377
780.953 370
780.991 364
781.029 372
781.068 387
781.106 366
781.145 366
781.183 359
781.222 361
781.26 381
781.299 391
781.337 383
781.376 373
781.414 385
781.452 392
781.491 384
781.529 359
781.568 385
781.606 373
781.645 390
781.683 398
781.722 358
781.76 376
781.798 375
781.837 356
781.875 378
781.914 369
781.952 360
781.991 389
782.029 384
782.068 378
782.106 373
782.144 389
782.183 361
782.221 382
782.26 368
782.298 385
782.337 401
782.375 384
782.413 380
782.452 394
782.49 367
782.529 371
782.567 376
782.606 380
782.644 375
782.682 360
782.721 367
782.759 367
782.798 386
782.836 361
782.875 381
782.913 364
782.951 370
782.99 368
783.028 364
783.067 354
783.105 363
783.143 384
783.182 386
783.22 373
783.259 360
783.297 359
783.336 387
783.374 351
783.412 356
783.451 376
783.489 374
783.528 367
783.566 359
783.604 364
783.643 369
783.681 355
783.72 365
783.758 382
783.796 369
783.835 377
783.873 365
783.912 352
783.95 356
783.988 350
784.027 355
784.065 360
784.104 366
784.142 373
784.18 347
784.219 381
784.257 378
784.295 361
784.334 354
784.372 382
784.411 365
784.449 368
784.487 350
784.526 354
784.564 359
784.603 364
784.641 345
784.679 356
784.718 364
784.756 372
784.794 339
784.833 356
784.871 362
784.91 344
784.948 342
784.986 364
785.025 345
785.063 370
785.101 354
785.14 370
785.178 359
785.217 351
785.255 349
785.293 393
785.332 372
785.37 360
785.408 367
785.447 341
785.485 360
785.523 332
785.562 348
785.6 321
785.638 335
785.677 362
785.715 355
785.754 347
785.792 361
785.83 350
785.869 361
