613.376 109
613.506 108
613.635 109
613.765 106
613.895 114
614.025 113
614.155 113
614.285 109
614.414 114
614.544 112
614.674 117
614.804 112
614.934 108
615.064 109
615.193 111
615.323 106
615.453 106
615.583 109
615.713 113
615.842 111
615.972 114
616.102 110
616.232 114
616.362 109
616.492 111
616.621 112
616.751 108
616.881 109
617.011 110
617.141 115
617.27 112
617.4 109
617.53 113
617.66 110
617.79 110
617.919 111
618.049 111
618.179 111
618.309 110
618.438 110
618.568 110
618.698 118
618.828 110
618.958 111
619.087 114
619.217 110
619.347 110
619.477 112
619.607 114
619.736 110
619.866 110
619.996 113
620.126 119
620.255 109
620.385 120
620.515 111
620.645 113
620.774 113
620.904 113
621.034 116
621.164 114
621.293 112
621.423 112
621.553 114
621.683 112
621.812 116
621.942 111
622.072 112
622.202 112
622.331 110
622.461 108
622.591 116
622.721 112
622.85 115
622.98 112
623.11 112
623.24 113
623.369 109
623.499 113
623.629 112
623.759 110
623.888 114
624.018 113
624.148 118
624.277 114
624.407 113
624.537 111
624.667 113
624.796 111
624.926 111
625.056 113
625.186 114
625.315 112
625.445 111
625.575 108
625.704 117
625.834 110
625.964 116
626.094 114
626.223 116
626.353 114
626.483 114
626.612 114
626.742 113
626.872 112
627.001 117
627.131 119
627.261 112
627.39 114
627.52 114
627.65 106
627.78 108
627.909 113
628.039 113
628.169 115
628.298 116
628.428 114
628.558 111
628.687 111
628.817 112
628.947 109
629.076 113
629.206 118
629.336 112
629.465 111
629.595 115
629.725 113
629.854 111
629.984 115
630.114 112
630.243 115
630.373 119
630.503 120
630.632 119
630.762 121
630.892 115
631.021 121
631.151 123
631.281 123
631.41 124
631.54 123
631.67 125
631.799 131
631.929 132
632.059 131
632.188 144
632.318 162
632.447 193
632.577 223
632.707 355
632.836 1152
632.966 6111
633.096 15290
633.225 9062
633.355 1697
633.485 264
633.614 204
633.744 206
633.873 196
634.003 177
634.133 140
634.262 135
634.392 123
634.522 125
634.651 117
634.781 123
634.91 123
635.04 149
635.17 154
635.299 195
635.429 244
635.558 268
635.688 291
635.818 303
635.947 333
636.077 369
636.206 425
636.336 420
636.466 470
636.595 491
636.725 662
636.854 9233
636.984 8696
637.114 1438
637.243 760
637.373 847
637.502 910
637.632 1003
637.762 1179
637.891 1328
638.021 1505
638.15 1695
638.28 1935
638.409 2159
638.539 2499
638.669 2849
638.798 3281
638.928 3539
639.057 4051
639.187 4319
639.317 4505
639.446 4806
639.576 4829
639.705 4948
639.835 4971
639.964 4925
640.094 4898
640.223 5050
640.353 4938
640.483 4891
640.612 4899
640.742 4978
640.871 4911
641.001 4856
641.13 4997
641.26 4963
641.389 4993
641.519 5160
641.649 5287
641.778 5359
641.908 5620
642.037 5936
642.167 6377
642.296 6978
642.426 7339
642.555 7799
642.685 7818
642.814 7735
642.944 7889
643.073 7982
643.203 8035
643.332 7978
643.462 8212
643.592 8373
643.721 8439
643.851 8664
643.98 8697
644.11 8905
644.239 9198
644.369 9294
644.498 9562
644.628 9905
644.757 10527
644.887 10974
645.016 11755
645.146 12820
645.275 14815
645.405 17359
645.534 18122
645.664 16594
645.793 14597
645.923 12639
646.052 11790
646.182 11023
646.311 10391
646.441 9880
646.57 9325
646.7 9043
646.829 8736
646.959 8441
647.088 8051
647.218 8001
647.347 7654
647.477 7377
647.606 7247
647.736 7103
647.865 7035
647.995 6834
648.124 6705
648.254 6517
648.383 6468
648.512 6418
648.642 6234
648.771 6082
648.901 6091
649.03 5962
649.16 5775
649.289 5740
649.419 5692
649.548 5544
649.678 5504
649.807 5457
649.937 5460
650.066 5372
650.195 5405
650.325 5327
650.454 5470
650.584 5479
650.713 5639
650.843 5745
650.972 5797
651.102 5581
651.231 5266
651.361 4973
651.49 4636
651.619 4303
651.749 3984
651.878 3609
652.008 3280
652.137 3136
652.267 3218
652.396 3622
652.525 3804
652.655 3976
652.784 4133
652.914 4324
653.043 4648
653.173 5045
653.302 5540
653.431 6284
653.561 7041
653.69 8475
653.82 10591
653.949 14134
654.079 20737
654.208 33570
654.337 65535
654.467 65535
654.596 65535
654.726 65535
654.855 65535
654.984 65535
655.114 65535
655.243 31944
655.373 22424
655.502 17192
655.631 13851
655.761 11563
655.89 10034
656.02 8762
656.149 7732
656.278 6907
656.408 6361
656.537 5767
656.667 5528
656.796 5130
656.925 4873
657.055 4727
657.184 4495
657.313 4459
657.443 4322
657.572 4247
657.702 4157
657.831 4185
657.96 4117
658.09 4307
658.219 4227
658.348 4399
658.478 4577
658.607 4793
658.737 5108
658.866 5278
658.995 5372
659.125 5262
659.254 4917
659.383 4649
659.513 4385
659.642 4382
659.771 4277
659.901 4259
660.03 4208
660.16 4209
660.289 4174
660.418 4095
660.548 4239
660.677 4296
660.806 4246
660.936 4258
661.065 4416
661.194 4346
661.324 4260
661.453 4167
661.582 3982
661.712 3794
661.841 3673
661.97 3515
662.1 3248
662.229 3164
662.358 3063
662.488 2874
662.617 2916
662.746 2764
662.876 2778
663.005 2664
663.134 2662
663.264 2665
663.393 2589
663.522 2575
663.652 2618
663.781 2562
663.91 2615
664.039 2589
664.169 2541
664.298 2621
664.427 2543
664.557 2523
664.686 2523
664.815 2572
664.945 2637
665.074 2697
665.203 2683
665.332 2742
665.462 2713
665.591 2795
665.72 2808
665.85 2789
665.979 2830
666.108 2889
666.238 2950
666.367 2900
666.496 2968
666.625 3029
666.755 3110
666.884 3213
667.013 3319
667.143 3252
667.272 3412
667.401 3395
667.53 3495
667.66 3558
667.789 3507
667.918 3514
668.047 3528
668.177 3500
668.306 3480
668.435 3341
668.564 3275
668.694 3258
668.823 3230
668.952 3328
669.082 3307
669.211 3252
669.34 3351
669.469 3388
669.599 3375
669.728 3380
669.857 3417
669.986 3500
670.116 3443
670.245 3427
670.374 3545
670.503 3510
670.633 3648
670.762 3488
670.891 3658
671.02 3713
671.149 3681
671.279 3674
671.408 3726
671.537 3822
671.666 3735
671.796 3872
671.925 3986
672.054 4043
672.183 4314
672.313 4660
672.442 5497
672.571 7050
672.7 9613
672.829 12661
672.959 15712
673.088 18153
673.217 19141
673.346 18675
673.476 18187
673.605 17648
673.734 17426
673.863 17091
673.992 16901
674.122 16496
674.251 16249
674.38 16042
674.509 15606
674.638 15397
674.768 14937
674.897 14529
675.026 14027
675.155 13373
675.284 12265
675.414 10554
675.543 8893
675.672 7426
675.801 6491
675.93 5775
676.059 5237
676.189 4752
676.318 4396
676.447 4145
676.576 3825
676.705 3542
676.835 3307
676.964 3098
677.093 2873
677.222 2578
677.351 2352
677.48 2062
677.61 1869
677.739 1607
677.868 1479
677.997 1358
678.126 1372
678.255 1293
678.385 1274
678.514 1230
678.643 1217
678.772 1192
678.901 1207
679.03 1155
679.16 1221
679.289 1198
679.418 1138
679.547 1111
679.676 1130
679.805 1155
679.934 1083
680.064 1124
680.193 1100
680.322 1157
680.451 1099
680.58 1122
680.709 1113
680.838 1056
680.968 1103
681.097 1075
681.226 1057
681.355 1057
681.484 1068
681.613 1059
681.742 1080
681.871 1052
682.001 1069
682.13 1050
682.259 1011
682.388 1004
682.517 971
682.646 988
682.775 973
682.904 972
683.033 916
683.163 962
683.292 954
683.421 938
683.55 912
683.679 915
683.808 917
683.937 909
684.066 882
684.195 877
684.325 874
684.454 905
684.583 876
684.712 885
684.841 886
684.97 871
685.099 843
685.228 881
685.357 840
685.486 861
685.615 838
685.745 840
685.874 888
686.003 857
686.132 885
686.261 867
686.39 835
686.519 823
686.648 828
686.777 829
686.906 855
687.035 865
687.164 846
687.293 851
687.422 825
687.552 857
687.681 885
687.81 872
687.939 883
688.068 864
688.197 839
688.326 876
688.455 864
688.584 888
688.713 852
688.842 880
688.971 855
689.1 823
689.229 874
689.358 875
689.487 880
689.616 868
689.745 874
689.875 856
690.004 888
690.133 894
690.262 892
690.391 950
690.52 977
690.649 941
690.778 943
690.907 975
691.036 936
691.165 928
691.294 884
691.423 861
691.552 822
691.681 847
691.81 811
691.939 809
692.068 808
692.197 788
692.326 796
692.455 795
692.584 811
692.713 797
692.842 831
692.971 820
693.1 814
693.229 796
693.358 815
693.487 787
693.616 801
693.745 802
693.874 823
694.003 821
694.132 790
694.261 798
694.39 812
694.519 801
694.648 805
694.777 815
694.906 806
695.035 794
695.164 837
695.293 827
695.422 847
695.551 888
695.68 890
695.809 879
695.938 889
696.067 917
696.196 860
696.325 888
696.454 879
696.583 848
696.712 842
696.841 868
696.97 823
697.099 829
697.228 824
697.357 814
697.486 833
697.614 814
697.743 793
697.872 765
698.001 729
698.13 751
698.259 692
698.388 734
698.517 735
698.646 710
698.775 695
698.904 732
699.033 705
699.162 669
699.291 712
699.42 705
699.549 697
699.678 690
699.807 715
699.936 665
700.064 686
700.193 712
700.322 716
700.451 722
700.58 712
700.709 710
700.838 765
700.967 722
701.096 735
701.225 800
701.354 817
701.483 803
701.612 836
701.74 905
701.869 921
701.998 957
702.127 1127
702.256 1179
702.385 1290
702.514 1579
702.643 1938
702.772 2450
702.901 3263
703.03 4375
703.158 5813
703.287 7300
703.416 7654
703.545 6714
703.674 5139
703.803 3715
703.932 2687
704.061 2030
704.19 1551
704.319 1316
704.447 1157
704.576 1039
704.705 983
704.834 945
704.963 885
705.092 866
705.221 823
705.35 787
705.478 780
705.607 749
705.736 753
705.865 771
705.994 704
706.123 705
706.252 698
706.381 700
706.509 733
706.638 747
706.767 725
706.896 739
707.025 736
707.154 751
707.283 774
707.411 731
707.54 726
707.669 734
707.798 722
707.927 659
708.056 679
708.185 668
708.313 670
708.442 669
708.571 655
708.7 650
708.829 685
708.958 706
709.087 702
709.215 742
709.344 771
709.473 724
709.602 731
709.731 683
709.86 693
709.988 650
710.117 643
710.246 626
710.375 615
710.504 598
710.632 628
710.761 612
710.89 578
711.019 616
711.148 602
711.277 618
711.405 636
711.534 631
711.663 611
711.792 629
711.921 664
712.049 646
712.178 679
712.307 663
712.436 705
712.565 680
712.693 667
712.822 693
712.951 668
713.08 664
713.209 689
713.337 651
713.466 662
713.595 672
713.724 693
713.853 706
713.981 727
714.11 747
714.239 761
714.368 789
714.497 792
714.625 776
714.754 788
714.883 768
715.012 759
715.14 737
715.269 713
715.398 678
715.527 653
715.656 661
715.784 641
715.913 648
716.042 614
716.171 648
716.299 614
716.428 610
716.557 613
716.686 622
716.814 574
716.943 627
717.072 586
717.201 600
717.329 600
717.458 590
717.587 583
717.716 602
717.844 602
717.973 594
718.102 609
718.231 589
718.359 607
718.488 607
718.617 610
718.746 615
718.874 616
719.003 632
719.132 680
719.261 686
719.389 659
719.518 665
719.647 663
719.775 675
719.904 688
720.033 674
720.162 680
720.29 615
720.419 633
720.548 644
720.677 627
720.805 658
720.934 603
721.063 609
721.191 646
721.32 641
721.449 602
721.578 654
721.706 598
721.835 580
721.964 611
722.092 601
722.221 582
722.35 588
722.478 563
722.607 568
722.736 573
722.865 544
722.993 557
723.122 574
723.251 576
723.379 564
723.508 525
723.637 575
723.765 549
723.894 561
724.023 544
724.151 556
724.28 531
724.409 553
724.537 532
724.666 540
724.795 530
724.923 543
725.052 544
725.181 542
725.309 532
725.438 531
725.567 539
725.695 554
725.824 527
725.953 557
726.081 525
726.21 511
726.339 522
726.467 507
726.596 498
726.725 534
726.853 554
726.982 519
727.111 563
727.239 504
727.368 535
727.497 496
727.625 534
727.754 529
727.883 524
728.011 509
728.14 548
728.269 538
728.397 514
728.526 501
728.654 503
728.783 513
728.912 530
729.04 508
729.169 536
729.298 536
729.426 537
729.555 528
729.683 527
729.812 530
729.941 508
730.069 531
730.198 520
730.327 525
730.455 508
730.584 526
730.712 527
730.841 493
730.97 522
731.098 513
731.227 529
731.355 524
731.484 512
731.613 503
731.741 527
731.87 507
731.998 508
732.127 524
732.256 506
732.384 513
732.513 526
732.641 516
732.77 499
732.899 518
733.027 530
733.156 506
733.284 516
733.413 502
733.542 500
733.67 516
733.799 510
733.927 496
734.056 518
734.184 496
734.313 511
734.442 482
734.57 508
734.699 504
734.827 521
734.956 518
735.084 530
735.213 499
735.342 504
735.47 496
735.599 489
735.727 529
735.856 508
735.984 503
736.113 514
736.241 517
736.37 523
736.499 519
736.627 515
736.756 530
736.884 518
737.013 530
737.141 549
737.27 524
737.398 549
737.527 556
737.655 496
737.784 511
737.913 503
738.041 510
738.17 517
738.298 512
738.427 508
738.555 544
738.684 506
738.812 540
738.941 538
739.069 528
739.198 532
739.326 511
739.455 524
739.583 530
739.712 507
739.84 537
739.969 528
740.097 520
740.226 551
740.354 544
740.483 545
740.612 556
740.74 530
740.869 545
740.997 547
741.126 554
741.254 506
741.383 553
741.511 547
741.64 540
741.768 553
741.897 535
742.025 535
742.153 538
742.282 553
742.41 549
742.539 562
742.667 539
742.796 563
742.924 558
743.053 569
743.181 530
743.31 566
743.438 574
743.567 541
743.695 564
743.824 553
743.952 571
744.081 538
744.209 533
744.338 562
744.466 547
744.595 582
744.723 572
744.852 566
744.98 556
745.108 565
745.237 601
745.365 564
745.494 595
745.622 567
745.751 549
745.879 553
746.008 598
746.136 615
746.265 583
746.393 596
746.521 603
746.65 622
746.778 613
746.907 618
747.035 648
747.164 652
747.292 664
747.421 642
747.549 671
747.677 671
747.806 708
747.934 709
748.063 743
748.191 812
748.32 847
748.448 884
748.576 971
748.705 1039
748.833 1227
748.962 1489
749.09 1565
749.219 1641
749.347 1677
749.475 1511
749.604 1415
749.732 1377
749.861 1266
749.989 1150
750.117 1148
750.246 1066
750.374 1066
750.503 1004
750.631 975
750.759 928
750.888 918
751.016 904
751.145 882
751.273 858
751.401 887
751.53 815
751.658 853
751.787 841
751.915 832
752.043 781
752.172 807
752.3 801
752.429 778
752.557 793
752.685 763
752.814 762
752.942 756
753.07 779
753.199 748
753.327 789
753.456 781
753.584 846
753.712 818
753.841 812
753.969 843
754.097 841
754.226 815
754.354 879
754.482 919
754.611 909
754.739 895
754.868 940
754.996 1000
755.124 1043
755.253 1039
755.381 1114
755.509 1155
755.638 1206
755.766 1314
755.894 1371
756.023 1455
756.151 1546
756.279 1686
756.408 1805
756.536 2020
756.664 2138
756.793 2411
756.921 2671
757.049 3006
757.178 3441
757.306 3953
757.434 4567
757.563 5232
757.691 6334
757.819 7741
757.948 9435
758.076 11771
758.204 14840
758.333 18384
758.461 22586
758.589 27057
758.718 30928
758.846 33015
758.974 33732
759.103 32962
759.231 31651
759.359 30011
759.488 27488
759.616 25343
759.744 22629
759.872 19286
760.001 16298
760.129 13471
760.257 11092
760.386 8977
760.514 7479
760.642 6250
760.771 5220
760.899 4500
761.027 3767
761.155 3341
761.284 2905
761.412 2624
761.54 2402
761.669 2109
761.797 1958
761.925 1827
762.053 1681
762.182 1548
762.31 1497
762.438 1358
762.567 1302
762.695 1287
762.823 1234
762.951 1188
763.08 1137
763.208 1136
763.336 1091
763.465 1114
763.593 1058
763.721 1026
763.849 1009
763.978 929
764.106 888
764.234 869
764.362 919
764.491 856
764.619 862
764.747 819
764.875 813
765.004 811
765.132 787
765.26 800
765.388 780
765.517 757
765.645 765
765.773 746
765.901 706
766.03 731
766.158 719
766.286 720
766.414 715
766.543 675
766.671 688
766.799 651
766.927 671
767.055 655
767.184 634
767.312 626
767.44 653
767.568 654
767.697 603
767.825 641
767.953 617
768.081 614
768.209 630
768.338 599
768.466 611
768.594 579
768.722 601
768.851 598
768.979 613
769.107 583
769.235 581
769.363 558
769.492 564
769.62 550
769.748 534
769.876 528
770.004 564
770.133 515
770.261 567
770.389 567
770.517 527
770.645 567
770.774 545
770.902 540
771.03 522
771.158 550
771.286 553
771.415 532
771.543 550
771.671 534
771.799 517
771.927 515
772.055 576
772.184 572
772.312 587
772.44 583
772.568 564
772.696 588
772.824 509
772.953 551
773.081 535
773.209 506
773.337 521
773.465 521
773.593 513
773.722 523
773.85 499
773.978 493
774.106 521
774.234 511
774.362 522
774.491 495
774.619 485
774.747 499
774.875 496
775.003 538
775.131 515
775.259 511
775.388 508
775.516 477
775.644 502
775.772 519
775.9 487
776.028 482
776.156 510
776.285 482
776.413 490
776.541 512
776.669 472
776.797 482
776.925 479
777.053 467
777.181 510
777.31 568
777.438 490
777.566 485
777.694 469
777.822 486
777.95 484
778.078 486
778.206 469
778.334 457
778.463 441
778.591 478
778.719 466
778.847 456
778.975 471
779.103 470
779.231 467
779.359 477
779.487 481
779.616 462
779.744 436
779.872 451
780 443
780.128 452
780.256 468
780.384 470
780.512 451
780.64 455
780.768 446
780.896 456
781.024 465
781.153 462
781.281 452
781.409 460
781.537 468
781.665 444
781.793 470
781.921 457
782.049 461
782.177 446
782.305 465
782.433 447
782.561 434
782.689 454
782.818 440
782.946 446
783.074 426
783.202 433
783.33 416
783.458 403
783.586 442
783.714 424
783.842 430
783.97 417
784.098 431
784.226 445
784.354 439
784.482 440
784.61 423
784.738 450
784.866 419
784.994 452
785.122 436
785.25 405
785.379 436
785.507 443
785.635 437
785.763 433
785.891 420
786.019 424
